 #    i     x    ref(x)   imf(x)    k   th(k)    reF(k)    imF(k)    reF-1(x)   imF-1(x)
      0  -10.000      0.4539993E-04   0.000000       -1287.      0.1207842E-05   1.999910       0.000000      0.4539993E-04 -0.3820263E-32
      1  -9.9976      0.4551090E-04   0.000000       -1286.      0.1208432E-05  -1.820423     -0.2684247E-16  0.4551090E-04 -0.1448426E-18
      2  -9.9951      0.4562215E-04   0.000000       -1286.      0.1209022E-05   1.433849      0.3371191E-16  0.4562215E-04  0.3482152E-16
      3  -9.9927      0.4573367E-04   0.000000       -1286.      0.1209613E-05  -1.059223     -0.3353403E-16  0.4573367E-04  0.2161967E-16
      4  -9.9902      0.4584546E-04   0.000000       -1286.      0.1210204E-05  0.7754191      0.1524659E-18  0.4584546E-04  0.1554475E-16
      5  -9.9878      0.4595752E-04   0.000000       -1285.      0.1210796E-05 -0.5768281     -0.1305278E-16  0.4595752E-04 -0.5101679E-17
      6  -9.9854      0.4606986E-04   0.000000       -1285.      0.1211388E-05  0.4392463      0.3480458E-16  0.4606986E-04 -0.2061128E-16
      7  -9.9829      0.4618248E-04   0.000000       -1285.      0.1211981E-05 -0.3427108      0.2054055E-16  0.4618248E-04 -0.2032932E-16
      8  -9.9805      0.4629536E-04   0.000000       -1284.      0.1212574E-05  0.2733416      0.3684593E-17  0.4629536E-04  0.6234162E-18
      9  -9.9780      0.4640853E-04   0.000000       -1284.      0.1213167E-05 -0.2223722      0.1490778E-17  0.4640853E-04 -0.8247242E-17
     10  -9.9756      0.4652197E-04   0.000000       -1284.      0.1213761E-05  0.1839920      0.4580754E-16  0.4652197E-04 -0.5056787E-17
     11  -9.9731      0.4663569E-04   0.000000       -1283.      0.1214356E-05 -0.1545410      0.2018480E-16  0.4663569E-04  0.1323912E-16
     12  -9.9707      0.4674968E-04   0.000000       -1283.      0.1214950E-05  0.1314682      0.3134022E-18  0.4674968E-04  0.6905013E-17
     13  -9.9683      0.4686396E-04   0.000000       -1283.      0.1215546E-05 -0.1131307     -0.2439455E-17  0.4686396E-04  0.1431147E-16
     14  -9.9658      0.4697851E-04   0.000000       -1282.      0.1216141E-05  0.9830356E-01 -0.2749045E-16  0.4697851E-04 -0.2888213E-16
     15  -9.9634      0.4709334E-04   0.000000       -1282.      0.1216737E-05 -0.8618725E-01  0.6546718E-16  0.4709334E-04  0.1583952E-17
     16  -9.9609      0.4720846E-04   0.000000       -1282.      0.1217334E-05  0.7614106E-01  0.2286989E-18  0.4720846E-04 -0.1253841E-16
     17  -9.9585      0.4732385E-04   0.000000       -1281.      0.1217931E-05 -0.6774750E-01 -0.1997885E-16  0.4732385E-04  0.2499892E-16
     18  -9.9561      0.4743953E-04   0.000000       -1281.      0.1218528E-05  0.6064562E-01  0.2400259E-17  0.4743953E-04  0.3298293E-16
     19  -9.9536      0.4755549E-04   0.000000       -1281.      0.1219126E-05 -0.5460461E-01  0.1859536E-16  0.4755549E-04  0.3964453E-16
     20  -9.9512      0.4767174E-04   0.000000       -1281.      0.1219724E-05  0.4940780E-01  0.8341697E-17  0.4767174E-04  0.5176388E-16
     21  -9.9487      0.4778826E-04   0.000000       -1280.      0.1220323E-05 -0.4492166E-01 -0.9550296E-17  0.4778826E-04  0.3772939E-16
     22  -9.9463      0.4790508E-04   0.000000       -1280.      0.1220922E-05  0.4100889E-01  0.1178015E-16  0.4790508E-04  0.3761378E-16
     23  -9.9438      0.4802218E-04   0.000000       -1280.      0.1221522E-05 -0.3758947E-01  0.1047464E-16  0.4802218E-04 -0.8488003E-17
     24  -9.9414      0.4813956E-04   0.000000       -1279.      0.1222122E-05  0.3457224E-01 -0.6327336E-17  0.4813956E-04  0.8727827E-17
     25  -9.9390      0.4825723E-04   0.000000       -1279.      0.1222722E-05 -0.3190799E-01  0.5007003E-17  0.4825723E-04 -0.1523484E-16
     26  -9.9365      0.4837519E-04   0.000000       -1279.      0.1223323E-05  0.2953367E-01  0.1724671E-16  0.4837519E-04 -0.1574741E-16
     27  -9.9341      0.4849344E-04   0.000000       -1278.      0.1223924E-05 -0.2741850E-01 -0.1559595E-16  0.4849344E-04  0.3472772E-16
     28  -9.9316      0.4861198E-04   0.000000       -1278.      0.1224526E-05  0.2551730E-01 -0.2649096E-17  0.4861198E-04  0.1164268E-16
     29  -9.9292      0.4873080E-04   0.000000       -1278.      0.1225128E-05 -0.2381064E-01  0.1472795E-16  0.4873080E-04  0.3179549E-16
     30  -9.9268      0.4884992E-04   0.000000       -1277.      0.1225731E-05  0.2226514E-01  0.5213488E-16  0.4884992E-04  0.3716149E-17
     31  -9.9243      0.4896933E-04   0.000000       -1277.      0.1226334E-05 -0.2086855E-01 -0.2083473E-16  0.4896933E-04 -0.1871511E-17
     32  -9.9219      0.4908903E-04   0.000000       -1277.      0.1226938E-05  0.1959551E-01  0.1022792E-17  0.4908903E-04 -0.3008661E-16
     33  -9.9194      0.4920902E-04   0.000000       -1276.      0.1227542E-05 -0.1843841E-01 -0.2141922E-16  0.4920902E-04 -0.1634985E-16
     34  -9.9170      0.4932931E-04   0.000000       -1276.      0.1228146E-05  0.1737751E-01  0.6877035E-17  0.4932931E-04  0.2885463E-16
     35  -9.9146      0.4944989E-04   0.000000       -1276.      0.1228751E-05 -0.1640827E-01  0.9273059E-17  0.4944989E-04  0.3477452E-16
     36  -9.9121      0.4957076E-04   0.000000       -1275.      0.1229357E-05  0.1551498E-01 -0.2686174E-17  0.4957076E-04 -0.1400866E-16
     37  -9.9097      0.4969193E-04   0.000000       -1275.      0.1229963E-05 -0.1469513E-01  0.1296214E-16  0.4969193E-04 -0.7275133E-17
     38  -9.9072      0.4981340E-04   0.000000       -1275.      0.1230569E-05  0.1393598E-01 -0.2046124E-17  0.4981340E-04 -0.3489989E-16
     39  -9.9048      0.4993516E-04   0.000000       -1275.      0.1231176E-05 -0.1323640E-01  0.7317907E-17  0.4993516E-04 -0.6207587E-17
     40  -9.9023      0.5005722E-04   0.000000       -1274.      0.1231783E-05  0.1258587E-01 -0.6946210E-17  0.5005722E-04  0.4878910E-18
     41  -9.8999      0.5017958E-04   0.000000       -1274.      0.1232390E-05 -0.1198418E-01  0.9873829E-17  0.5017958E-04 -0.2519215E-16
     42  -9.8975      0.5030224E-04   0.000000       -1274.      0.1232998E-05  0.1142253E-01  0.5586264E-17  0.5030224E-04  0.1895404E-16
     43  -9.8950      0.5042520E-04   0.000000       -1273.      0.1233607E-05 -0.1090133E-01 -0.1238582E-16  0.5042520E-04  0.4243127E-16
     44  -9.8926      0.5054846E-04   0.000000       -1273.      0.1234216E-05  0.1041309E-01  0.6557903E-17  0.5054846E-04  0.2371945E-16
     45  -9.8901      0.5067202E-04   0.000000       -1273.      0.1234825E-05 -0.9958655E-02  0.4397054E-19  0.5067202E-04  0.1614531E-16
     46  -9.8877      0.5079588E-04   0.000000       -1272.      0.1235435E-05  0.9531594E-02  0.4678856E-16  0.5079588E-04 -0.4532490E-17
     47  -9.8853      0.5092004E-04   0.000000       -1272.      0.1236045E-05 -0.9133013E-02 -0.3782949E-16  0.5092004E-04  0.2240993E-16
     48  -9.8828      0.5104451E-04   0.000000       -1272.      0.1236656E-05  0.8757329E-02  0.5484538E-18  0.5104451E-04 -0.3031933E-16
     49  -9.8804      0.5116929E-04   0.000000       -1271.      0.1237267E-05 -0.8405824E-02  0.1128096E-16  0.5116929E-04  0.2734118E-16
     50  -9.8779      0.5129436E-04   0.000000       -1271.      0.1237879E-05  0.8073603E-02 -0.9258132E-17  0.5129436E-04  0.3523265E-16
     51  -9.8755      0.5141975E-04   0.000000       -1271.      0.1238491E-05 -0.7762055E-02  0.1709229E-16  0.5141975E-04  0.1178847E-16
     52  -9.8730      0.5154544E-04   0.000000       -1270.      0.1239104E-05  0.7466848E-02  0.1227909E-16  0.5154544E-04  0.1741151E-16
     53  -9.8706      0.5167143E-04   0.000000       -1270.      0.1239717E-05 -0.7189432E-02  0.7050531E-17  0.5167143E-04  0.2800990E-16
     54  -9.8682      0.5179774E-04   0.000000       -1270.      0.1240330E-05  0.6925943E-02  0.3299214E-17  0.5179774E-04  0.2209983E-16
     55  -9.8657      0.5192435E-04   0.000000       -1270.      0.1240944E-05 -0.6677855E-02  0.1605377E-17  0.5192435E-04 -0.9246945E-17
     56  -9.8633      0.5205128E-04   0.000000       -1269.      0.1241559E-05  0.6441701E-02  0.2830668E-17  0.5205128E-04  0.1792222E-17
     57  -9.8608      0.5217851E-04   0.000000       -1269.      0.1242174E-05 -0.6218955E-02  0.3612575E-17  0.5217851E-04 -0.2122505E-16
     58  -9.8584      0.5230605E-04   0.000000       -1269.      0.1242789E-05  0.6006483E-02 -0.7303612E-19  0.5230605E-04 -0.1166036E-16
     59  -9.8560      0.5243391E-04   0.000000       -1268.      0.1243405E-05 -0.5805746E-02 -0.3513110E-17  0.5243391E-04  0.1252772E-16
     60  -9.8535      0.5256208E-04   0.000000       -1268.      0.1244021E-05  0.5613895E-02  0.1303351E-17  0.5256208E-04  0.1389357E-16
     61  -9.8511      0.5269056E-04   0.000000       -1268.      0.1244638E-05 -0.5432363E-02 -0.2655021E-16  0.5269056E-04  0.1691694E-16
     62  -9.8486      0.5281936E-04   0.000000       -1267.      0.1245255E-05  0.5258550E-02 -0.1111943E-16  0.5281936E-04 -0.1410194E-16
     63  -9.8462      0.5294847E-04   0.000000       -1267.      0.1245872E-05 -0.5093852E-02  0.3034487E-16  0.5294847E-04 -0.6696875E-18
     64  -9.8438      0.5307790E-04   0.000000       -1267.      0.1246490E-05  0.4935885E-02 -0.5293956E-20  0.5307790E-04 -0.2602085E-17
     65  -9.8413      0.5320764E-04   0.000000       -1266.      0.1247109E-05 -0.4786005E-02 -0.2927028E-17  0.5320764E-04  0.3246677E-17
     66  -9.8389      0.5333770E-04   0.000000       -1266.      0.1247728E-05  0.4642016E-02  0.2667201E-16  0.5333770E-04  0.3642072E-16
     67  -9.8364      0.5346808E-04   0.000000       -1266.      0.1248347E-05 -0.4505230E-02  0.4202342E-17  0.5346808E-04  0.4682059E-16
     68  -9.8340      0.5359877E-04   0.000000       -1265.      0.1248967E-05  0.4373617E-02 -0.1117236E-16  0.5359877E-04  0.2794531E-16
     69  -9.8315      0.5372979E-04   0.000000       -1265.      0.1249588E-05 -0.4248446E-02 -0.4129286E-18  0.5372979E-04 -0.1361267E-16
     70  -9.8291      0.5386113E-04   0.000000       -1265.      0.1250208E-05  0.4127831E-02  0.1255620E-16  0.5386113E-04 -0.5283368E-17
     71  -9.8267      0.5399278E-04   0.000000       -1264.      0.1250830E-05 -0.4012997E-02 -0.6797439E-18  0.5399278E-04 -0.2588586E-16
     72  -9.8242      0.5412476E-04   0.000000       -1264.      0.1251452E-05  0.3902187E-02 -0.1238786E-17  0.5412476E-04  0.5637851E-17
     73  -9.8218      0.5425706E-04   0.000000       -1264.      0.1252074E-05 -0.3796584E-02  0.5723296E-17  0.5425706E-04  0.1143103E-16
     74  -9.8193      0.5438969E-04   0.000000       -1264.      0.1252696E-05  0.3694546E-02  0.2190110E-17  0.5438969E-04  0.1172124E-16
     75  -9.8169      0.5452264E-04   0.000000       -1263.      0.1253320E-05 -0.3597210E-02 -0.7163252E-17  0.5452264E-04  0.3744394E-16
     76  -9.8145      0.5465591E-04   0.000000       -1263.      0.1253943E-05  0.3503042E-02  0.5503067E-17  0.5465591E-04  0.1251576E-16
     77  -9.8120      0.5478951E-04   0.000000       -1263.      0.1254567E-05 -0.3413135E-02  0.9377714E-17  0.5478951E-04  0.3274291E-16
     78  -9.8096      0.5492344E-04   0.000000       -1262.      0.1255192E-05  0.3326047E-02  0.3491364E-17  0.5492344E-04 -0.1196858E-16
     79  -9.8071      0.5505770E-04   0.000000       -1262.      0.1255817E-05 -0.3242831E-02  0.5304014E-17  0.5505770E-04  0.1258691E-17
     80  -9.8047      0.5519228E-04   0.000000       -1262.      0.1256442E-05  0.3162132E-02  0.9899698E-18  0.5519228E-04 -0.5056215E-16
     81  -9.8022      0.5532719E-04   0.000000       -1261.      0.1257068E-05 -0.3084961E-02  0.4132452E-17  0.5532719E-04  0.1747301E-16
     82  -9.7998      0.5546243E-04   0.000000       -1261.      0.1257695E-05  0.3010040E-02  0.2448475E-17  0.5546243E-04  0.2017347E-16
     83  -9.7974      0.5559800E-04   0.000000       -1261.      0.1258322E-05 -0.2938342E-02 -0.1405685E-16  0.5559800E-04  0.2115888E-16
     84  -9.7949      0.5573391E-04   0.000000       -1260.      0.1258949E-05  0.2868661E-02  0.8460261E-17  0.5573391E-04  0.3663926E-16
     85  -9.7925      0.5587014E-04   0.000000       -1260.      0.1259577E-05 -0.2801932E-02  0.3865647E-17  0.5587014E-04  0.2742947E-16
     86  -9.7900      0.5600671E-04   0.000000       -1260.      0.1260205E-05  0.2737012E-02  0.4219771E-17  0.5600671E-04  0.1958042E-16
     87  -9.7876      0.5614361E-04   0.000000       -1259.      0.1260834E-05 -0.2674803E-02 -0.3546442E-17  0.5614361E-04 -0.2056756E-16
     88  -9.7852      0.5628085E-04   0.000000       -1259.      0.1261463E-05  0.2614222E-02  0.1005322E-17  0.5628085E-04  0.5410169E-16
     89  -9.7827      0.5641842E-04   0.000000       -1259.      0.1262093E-05 -0.2556134E-02  0.4075837E-17  0.5641842E-04  0.1634720E-16
     90  -9.7803      0.5655633E-04   0.000000       -1259.      0.1262723E-05  0.2499512E-02  0.1042848E-17  0.5655633E-04  0.9157489E-17
     91  -9.7778      0.5669457E-04   0.000000       -1258.      0.1263354E-05 -0.2445190E-02 -0.4462846E-17  0.5669457E-04  0.8955463E-17
     92  -9.7754      0.5683316E-04   0.000000       -1258.      0.1263985E-05  0.2392190E-02 -0.3596714E-17  0.5683316E-04  0.7554471E-17
     93  -9.7729      0.5697208E-04   0.000000       -1258.      0.1264616E-05 -0.2341316E-02 -0.7509111E-17  0.5697208E-04  0.2446783E-16
     94  -9.7705      0.5711134E-04   0.000000       -1257.      0.1265248E-05  0.2291635E-02 -0.2782715E-16  0.5711134E-04  0.8952075E-17
     95  -9.7681      0.5725095E-04   0.000000       -1257.      0.1265881E-05 -0.2243922E-02  0.3535140E-17  0.5725095E-04 -0.3109043E-17
     96  -9.7656      0.5739089E-04   0.000000       -1257.      0.1266514E-05  0.2197290E-02  0.4108110E-18  0.5739089E-04  0.2054563E-16
     97  -9.7632      0.5753117E-04   0.000000       -1256.      0.1267147E-05 -0.2152482E-02 -0.1498731E-16  0.5753117E-04 -0.1110077E-16
     98  -9.7607      0.5767180E-04   0.000000       -1256.      0.1267781E-05  0.2108653E-02  0.7570134E-18  0.5767180E-04  0.4294925E-16
     99  -9.7583      0.5781278E-04   0.000000       -1256.      0.1268416E-05 -0.2066521E-02 -0.3861577E-17  0.5781278E-04  0.3754854E-16
    100  -9.7559      0.5795409E-04   0.000000       -1255.      0.1269051E-05  0.2025274E-02  0.1753379E-17  0.5795409E-04 -0.2777869E-17
    101  -9.7534      0.5809575E-04   0.000000       -1255.      0.1269686E-05 -0.1985608E-02  0.2093542E-17  0.5809575E-04 -0.2033047E-16
    102  -9.7510      0.5823776E-04   0.000000       -1255.      0.1270322E-05  0.1946746E-02  0.2781943E-17  0.5823776E-04  0.1870461E-16
    103  -9.7485      0.5838012E-04   0.000000       -1254.      0.1270958E-05 -0.1909357E-02  0.3630979E-17  0.5838012E-04 -0.1680101E-16
    104  -9.7461      0.5852282E-04   0.000000       -1254.      0.1271595E-05  0.1872698E-02  0.3962266E-17  0.5852282E-04 -0.5127506E-17
    105  -9.7437      0.5866588E-04   0.000000       -1254.      0.1272233E-05 -0.1837416E-02  0.2722121E-17  0.5866588E-04 -0.3914275E-16
    106  -9.7412      0.5880928E-04   0.000000       -1253.      0.1272870E-05  0.1802797E-02 -0.2338272E-18  0.5880928E-04  0.2815116E-16
    107  -9.7388      0.5895303E-04   0.000000       -1253.      0.1273509E-05 -0.1769466E-02  0.1329676E-16  0.5895303E-04  0.4385073E-17
    108  -9.7363      0.5909713E-04   0.000000       -1253.      0.1274147E-05  0.1736739E-02 -0.7542559E-17  0.5909713E-04  0.3112378E-16
    109  -9.7339      0.5924159E-04   0.000000       -1253.      0.1274787E-05 -0.1705218E-02  0.1460170E-16  0.5924159E-04  0.2074002E-16
    110  -9.7314      0.5938640E-04   0.000000       -1252.      0.1275426E-05  0.1674247E-02 -0.3549078E-17  0.5938640E-04  0.4827257E-17
    111  -9.7290      0.5953156E-04   0.000000       -1252.      0.1276067E-05 -0.1644408E-02  0.1013892E-16  0.5953156E-04 -0.1040588E-17
    112  -9.7266      0.5967708E-04   0.000000       -1252.      0.1276707E-05  0.1615069E-02 -0.1828003E-17  0.5967708E-04 -0.2240000E-16
    113  -9.7241      0.5982296E-04   0.000000       -1251.      0.1277348E-05 -0.1586795E-02  0.9170119E-17  0.5982296E-04  0.6023451E-17
    114  -9.7217      0.5996919E-04   0.000000       -1251.      0.1277990E-05  0.1558976E-02  0.8087108E-17  0.5996919E-04  0.3494572E-16
    115  -9.7192      0.6011577E-04   0.000000       -1251.      0.1278632E-05 -0.1532158E-02  0.7779826E-18  0.6011577E-04  0.2063595E-16
    116  -9.7168      0.6026272E-04   0.000000       -1250.      0.1279275E-05  0.1505755E-02 -0.3340247E-17  0.6026272E-04  0.3486059E-16
    117  -9.7144      0.6041003E-04   0.000000       -1250.      0.1279918E-05 -0.1480296E-02 -0.5238779E-18  0.6041003E-04  0.6146219E-16
    118  -9.7119      0.6055769E-04   0.000000       -1250.      0.1280561E-05  0.1455215E-02  0.1429612E-17  0.6055769E-04  0.3033744E-16
    119  -9.7095      0.6070572E-04   0.000000       -1249.      0.1281205E-05 -0.1431025E-02  0.2891706E-17  0.6070572E-04 -0.2910565E-16
    120  -9.7070      0.6085411E-04   0.000000       -1249.      0.1281850E-05  0.1407179E-02 -0.2177791E-17  0.6085411E-04  0.2361199E-16
    121  -9.7046      0.6100286E-04   0.000000       -1249.      0.1282495E-05 -0.1384174E-02  0.8591184E-17  0.6100286E-04 -0.6692094E-17
    122  -9.7021      0.6115197E-04   0.000000       -1248.      0.1283141E-05  0.1361484E-02  0.3861457E-17  0.6115197E-04 -0.1205996E-16
    123  -9.6997      0.6130145E-04   0.000000       -1248.      0.1283787E-05 -0.1339588E-02  0.1322878E-16  0.6130145E-04  0.1202269E-16
    124  -9.6973      0.6145130E-04   0.000000       -1248.      0.1284433E-05  0.1317980E-02 -0.5118342E-17  0.6145130E-04  0.2024356E-16
    125  -9.6948      0.6160151E-04   0.000000       -1248.      0.1285080E-05 -0.1297123E-02  0.5027133E-17  0.6160151E-04  0.4951246E-16
    126  -9.6924      0.6175209E-04   0.000000       -1247.      0.1285728E-05  0.1276529E-02 -0.3705995E-16  0.6175209E-04  0.8577288E-18
    127  -9.6899      0.6190303E-04   0.000000       -1247.      0.1286376E-05 -0.1256647E-02  0.4735674E-16  0.6190303E-04  0.2239513E-16
    128  -9.6875      0.6205435E-04   0.000000       -1247.      0.1287024E-05  0.1237004E-02 -0.6352747E-20  0.6205435E-04 -0.2602085E-17
    129  -9.6851      0.6220603E-04   0.000000       -1246.      0.1287673E-05 -0.1218038E-02  0.6872059E-17  0.6220603E-04 -0.1037435E-16
    130  -9.6826      0.6235809E-04   0.000000       -1246.      0.1288322E-05  0.1199288E-02 -0.1466043E-16  0.6235809E-04  0.3203987E-16
    131  -9.6802      0.6251051E-04   0.000000       -1246.      0.1288972E-05 -0.1181182E-02 -0.7222296E-17  0.6251051E-04  0.2113855E-16
    132  -9.6777      0.6266331E-04   0.000000       -1245.      0.1289623E-05  0.1163272E-02  0.6252989E-17  0.6266331E-04  0.3336802E-16
    133  -9.6753      0.6281649E-04   0.000000       -1245.      0.1290274E-05 -0.1145974E-02  0.1861884E-17  0.6281649E-04 -0.2198135E-16
    134  -9.6729      0.6297004E-04   0.000000       -1245.      0.1290925E-05  0.1128856E-02  0.3900322E-18  0.6297004E-04 -0.1540711E-16
    135  -9.6704      0.6312396E-04   0.000000       -1244.      0.1291577E-05 -0.1112319E-02 -0.2737108E-17  0.6312396E-04 -0.3783241E-16
    136  -9.6680      0.6327826E-04   0.000000       -1244.      0.1292229E-05  0.1095945E-02 -0.2365075E-18  0.6327826E-04 -0.1145189E-17
    137  -9.6655      0.6343294E-04   0.000000       -1244.      0.1292882E-05 -0.1080126E-02 -0.2326958E-17  0.6343294E-04 -0.6241468E-17
    138  -9.6631      0.6358799E-04   0.000000       -1243.      0.1293536E-05  0.1064454E-02 -0.1569393E-17  0.6358799E-04 -0.6927035E-17
    139  -9.6606      0.6374342E-04   0.000000       -1243.      0.1294189E-05 -0.1049311E-02  0.1050056E-17  0.6374342E-04  0.3973432E-16
    140  -9.6582      0.6389924E-04   0.000000       -1243.      0.1294844E-05  0.1034302E-02 -0.5736795E-17  0.6389924E-04  0.6166400E-18
    141  -9.6558      0.6405543E-04   0.000000       -1242.      0.1295499E-05 -0.1019798E-02 -0.1110143E-17  0.6405543E-04  0.1127570E-16
    142  -9.6533      0.6421201E-04   0.000000       -1242.      0.1296154E-05  0.1005415E-02  0.1462720E-16  0.6421201E-04 -0.2928871E-16
